position of an individual particle
and kinetic energy of both 
for a two LJ particle system decaying to zero due to artificial drag

produced by LJ simulation (P350, exercise 4)

1/25/17

<data below>

0.000000E+0	3.799328E-2	1.744000E+0	1.725725E-1
1.000000E+0	3.652361E-2	1.512000E-3	1.752503E-1
2.000000E+0	3.508375E-2	2.232000E+3	1.779416E-1
3.000000E+0	3.367367E-2	3.200000E-1	1.806463E-1
4.000000E+0	3.229331E-2	0.000000E+0	1.833641E-1
5.000000E+0	3.094264E-2	0.000000E+0	1.860949E-1
6.000000E+0	2.962163E-2	0.000000E+0	1.888386E-1
7.000000E+0	2.833021E-2	0.000000E+0	1.915950E-1
8.000000E+0	2.706835E-2	0.000000E+0	1.943638E-1
9.000000E+0	2.583602E-2	0.000000E+0	1.971449E-1
1.000000E+1	2.463315E-2	0.000000E+0	1.999382E-1
1.100000E+1	2.345971E-2	0.000000E+0	2.027434E-1
1.200000E+1	2.231564E-2	0.000000E+0	2.055604E-1
1.300000E+1	2.120091E-2	0.000000E+0	2.083891E-1
1.400000E+1	2.011545E-2	0.000000E+0	2.112292E-1
1.500000E+1	1.905924E-2	0.000000E+0	2.140806E-1
1.600000E+1	1.803219E-2	0.000000E+0	2.169430E-1
1.700000E+1	1.703428E-2	0.000000E+0	2.198165E-1
1.800000E+1	1.606544E-2	0.000000E+0	2.227006E-1
1.900000E+1	1.512564E-2	0.000000E+0	2.255954E-1
2.000000E+1	1.421480E-2	0.000000E+0	2.285006E-1
2.100000E+1	1.333287E-2	0.000000E+0	2.314160E-1
2.200000E+1	1.247980E-2	0.000000E+0	2.343416E-1
2.300000E+1	1.165555E-2	0.000000E+0	2.372770E-1
2.400000E+1	1.086004E-2	0.000000E+0	2.402222E-1
2.500000E+1	1.009321E-2	0.000000E+0	2.431769E-1
2.600000E+1	9.355020E-3	0.000000E+0	2.461411E-1
2.700000E+1	8.645401E-3	0.000000E+0	2.491145E-1
2.800000E+1	7.964285E-3	0.000000E+0	2.520969E-1
2.900000E+1	7.311625E-3	0.000000E+0	2.550883E-1
3.000000E+1	6.687350E-3	0.000000E+0	2.580883E-1
3.100000E+1	6.091401E-3	0.000000E+0	2.610969E-1
3.200000E+1	5.523713E-3	0.000000E+0	2.641140E-1
3.300000E+1	4.984221E-3	0.000000E+0	2.671392E-1
3.400000E+1	4.472862E-3	0.000000E+0	2.701725E-1
3.500000E+1	3.989569E-3	0.000000E+0	2.732137E-1
3.600000E+1	3.534276E-3	0.000000E+0	2.762626E-1
3.700000E+1	3.106915E-3	0.000000E+0	2.793191E-1
3.800000E+1	2.707418E-3	0.000000E+0	2.823829E-1
3.900000E+1	2.335716E-3	0.000000E+0	2.854540E-1
4.000000E+1	1.991740E-3	0.000000E+0	2.885321E-1
4.100000E+1	1.675419E-3	0.000000E+0	2.916172E-1
4.200000E+1	1.386681E-3	0.000000E+0	2.947089E-1
4.300000E+1	1.125456E-3	0.000000E+0	2.978073E-1
4.400000E+1	8.916702E-4	0.000000E+0	3.009120E-1
4.500000E+1	6.852502E-4	0.000000E+0	3.040230E-1
4.600000E+1	5.061223E-4	0.000000E+0	3.071400E-1
4.700000E+1	3.542114E-4	0.000000E+0	3.102630E-1
4.800000E+1	2.294420E-4	0.000000E+0	3.133917E-1
4.900000E+1	1.317377E-4	0.000000E+0	3.165259E-1
5.000000E+1	6.102154E-5	0.000000E+0	3.196657E-1
5.100000E+1	1.721580E-5	0.000000E+0	3.228106E-1
5.200000E+1	2.420137E-7	0.000000E+0	3.259607E-1
5.300000E+1	1.002103E-5	0.000000E+0	3.291157E-1
5.400000E+1	4.647299E-5	0.000000E+0	3.322755E-1
5.500000E+1	1.095173E-4	0.000000E+0	3.354399E-1
5.600000E+1	1.990728E-4	0.000000E+0	3.386088E-1
5.700000E+1	3.150575E-4	0.000000E+0	3.417819E-1
5.800000E+1	4.573888E-4	0.000000E+0	3.449593E-1
5.900000E+1	6.259833E-4	0.000000E+0	3.481405E-1
6.000000E+1	8.207570E-4	0.000000E+0	3.513257E-1
6.100000E+1	1.041626E-3	0.000000E+0	3.545144E-1
6.200000E+1	1.288503E-3	0.000000E+0	3.577067E-1
6.300000E+1	1.561303E-3	0.000000E+0	3.609024E-1
6.400000E+1	1.859941E-3	0.000000E+0	3.641012E-1
6.500000E+1	2.184328E-3	0.000000E+0	3.673031E-1
6.600000E+1	2.534376E-3	0.000000E+0	3.705079E-1
6.700000E+1	2.909996E-3	0.000000E+0	3.737154E-1
6.800000E+1	3.311100E-3	0.000000E+0	3.769254E-1
6.900000E+1	3.737598E-3	0.000000E+0	3.801379E-1
7.000000E+1	4.189398E-3	0.000000E+0	3.833527E-1
7.100000E+1	4.666410E-3	0.000000E+0	3.865695E-1
7.200000E+1	5.168543E-3	0.000000E+0	3.897884E-1
7.300000E+1	5.695702E-3	0.000000E+0	3.930090E-1
7.400000E+1	6.247796E-3	0.000000E+0	3.962313E-1
7.500000E+1	6.824730E-3	0.000000E+0	3.994551E-1
7.600000E+1	7.426411E-3	0.000000E+0	4.026802E-1
7.700000E+1	8.052747E-3	0.000000E+0	4.059065E-1
7.800000E+1	8.703632E-3	0.000000E+0	4.091339E-1
7.900000E+1	9.378978E-3	0.000000E+0	4.123622E-1
8.000000E+1	1.007870E-2	0.000000E+0	4.155913E-1
8.100000E+1	1.080267E-2	0.000000E+0	4.188209E-1
8.200000E+1	1.155082E-2	0.000000E+0	4.220510E-1
8.300000E+1	1.232303E-2	0.000000E+0	4.252814E-1
8.400000E+1	1.311922E-2	0.000000E+0	4.285120E-1
8.500000E+1	1.393928E-2	0.000000E+0	4.317425E-1
8.600000E+1	1.478311E-2	0.000000E+0	4.349730E-1
8.700000E+1	1.565060E-2	0.000000E+0	4.382031E-1
8.800000E+1	1.654167E-2	0.000000E+0	4.414329E-1
8.900000E+1	1.745621E-2	0.000000E+0	4.446620E-1
9.000000E+1	1.839410E-2	0.000000E+0	4.478905E-1
9.100000E+1	1.935527E-2	0.000000E+0	4.511181E-1
9.200000E+1	2.033959E-2	0.000000E+0	4.543447E-1
9.300000E+1	2.134696E-2	0.000000E+0	4.575701E-1
9.400000E+1	2.237728E-2	0.000000E+0	4.607943E-1
9.500000E+1	2.343045E-2	0.000000E+0	4.640170E-1
9.600000E+1	2.450636E-2	0.000000E+0	4.672382E-1
9.700000E+1	2.560490E-2	0.000000E+0	4.704576E-1
9.800000E+1	2.672597E-2	0.000000E+0	4.736752E-1
9.900000E+1	2.786946E-2	0.000000E+0	4.768908E-1
1.000000E+2	2.903525E-2	0.000000E+0	4.801043E-1
1.010000E+2	3.022326E-2	0.000000E+0	4.833155E-1
1.020000E+2	3.143336E-2	0.000000E+0	4.865243E-1
1.030000E+2	3.266544E-2	0.000000E+0	4.897305E-1
1.040000E+2	3.391940E-2	0.000000E+0	4.929341E-1
1.050000E+2	3.519512E-2	0.000000E+0	4.961349E-1
1.060000E+2	3.649250E-2	0.000000E+0	4.993327E-1
1.070000E+2	3.781143E-2	0.000000E+0	5.025274E-1
1.080000E+2	3.915179E-2	0.000000E+0	5.057189E-1
1.090000E+2	4.051347E-2	0.000000E+0	5.089070E-1
1.100000E+2	4.189636E-2	0.000000E+0	5.120917E-1
1.110000E+2	4.330034E-2	0.000000E+0	5.152727E-1
1.120000E+2	4.472531E-2	0.000000E+0	5.184500E-1
1.130000E+2	4.617115E-2	0.000000E+0	5.216234E-1
1.140000E+2	4.763773E-2	0.000000E+0	5.247928E-1
1.150000E+2	4.912497E-2	0.000000E+0	5.279580E-1
1.160000E+2	5.063272E-2	0.000000E+0	5.311189E-1
1.170000E+2	5.216089E-2	0.000000E+0	5.342755E-1
1.180000E+2	5.370935E-2	0.000000E+0	5.374275E-1
1.190000E+2	5.527798E-2	0.000000E+0	5.405748E-1
1.200000E+2	5.686668E-2	0.000000E+0	5.437174E-1
1.210000E+2	5.847532E-2	0.000000E+0	5.468550E-1
1.220000E+2	6.010379E-2	0.000000E+0	5.499876E-1
1.230000E+2	6.175197E-2	0.000000E+0	5.531150E-1
1.240000E+2	6.341973E-2	0.000000E+0	5.562371E-1
1.250000E+2	6.510696E-2	0.000000E+0	5.593538E-1
1.260000E+2	6.681356E-2	0.000000E+0	5.624649E-1
1.270000E+2	6.853937E-2	0.000000E+0	5.655704E-1
1.280000E+2	7.028431E-2	0.000000E+0	5.686701E-1
1.290000E+2	7.204823E-2	0.000000E+0	5.717639E-1
1.300000E+2	7.383103E-2	0.000000E+0	5.748516E-1
1.310000E+2	7.563258E-2	0.000000E+0	5.779332E-1
1.320000E+2	7.745276E-2	0.000000E+0	5.810085E-1
1.330000E+2	7.929147E-2	0.000000E+0	5.840774E-1
1.340000E+2	8.114854E-2	0.000000E+0	5.871398E-1
1.350000E+2	8.302386E-2	0.000000E+0	5.901955E-1
1.360000E+2	8.491734E-2	0.000000E+0	5.932446E-1
1.370000E+2	8.682883E-2	0.000000E+0	5.962867E-1
1.380000E+2	8.875824E-2	0.000000E+0	5.993219E-1
1.390000E+2	9.070534E-2	0.000000E+0	6.023499E-1
1.400000E+2	9.267021E-2	0.000000E+0	6.053708E-1
1.410000E+2	9.465254E-2	0.000000E+0	6.083843E-1
1.420000E+2	9.665225E-2	0.000000E+0	6.113904E-1
1.430000E+2	9.866925E-2	0.000000E+0	6.143889E-1
1.440000E+2	1.007034E-1	0.000000E+0	6.173797E-1
1.450000E+2	1.027546E-1	0.000000E+0	6.203628E-1
1.460000E+2	1.048226E-1	0.000000E+0	6.233380E-1
1.470000E+2	1.069075E-1	0.000000E+0	6.263051E-1
1.480000E+2	1.090090E-1	0.000000E+0	6.292642E-1
1.490000E+2	1.111270E-1	0.000000E+0	6.322150E-1
1.500000E+2	1.132614E-1	0.000000E+0	6.351575E-1
1.510000E+2	1.154121E-1	0.000000E+0	6.380916E-1
1.520000E+2	1.175789E-1	0.000000E+0	6.410171E-1
1.530000E+2	1.197617E-1	0.000000E+0	6.439340E-1
1.540000E+2	1.219604E-1	0.000000E+0	6.468421E-1
1.550000E+2	1.241749E-1	0.000000E+0	6.497413E-1
1.560000E+2	1.264049E-1	0.000000E+0	6.526316E-1
1.570000E+2	1.286505E-1	0.000000E+0	6.555128E-1
1.580000E+2	1.309115E-1	0.000000E+0	6.583849E-1
1.590000E+2	1.331876E-1	0.000000E+0	6.612476E-1
1.600000E+2	1.354790E-1	0.000000E+0	6.641010E-1
1.610000E+2	1.377852E-1	0.000000E+0	6.669449E-1
1.620000E+2	1.401064E-1	0.000000E+0	6.697792E-1
1.630000E+2	1.424422E-1	0.000000E+0	6.726038E-1
1.640000E+2	1.447927E-1	0.000000E+0	6.754186E-1
1.650000E+2	1.471575E-1	0.000000E+0	6.782236E-1
1.660000E+2	1.495367E-1	0.000000E+0	6.810186E-1
1.670000E+2	1.519302E-1	0.000000E+0	6.838035E-1
1.680000E+2	1.543377E-1	0.000000E+0	6.865782E-1
1.690000E+2	1.567591E-1	0.000000E+0	6.893427E-1
1.700000E+2	1.591944E-1	0.000000E+0	6.920968E-1
1.710000E+2	1.616433E-1	0.000000E+0	6.948404E-1
1.720000E+2	1.641058E-1	0.000000E+0	6.975735E-1
1.730000E+2	1.665817E-1	0.000000E+0	7.002960E-1
1.740000E+2	1.690708E-1	0.000000E+0	7.030077E-1
1.750000E+2	1.715732E-1	0.000000E+0	7.057085E-1
1.760000E+2	1.740885E-1	0.000000E+0	7.083985E-1
1.770000E+2	1.766167E-1	0.000000E+0	7.110775E-1
1.780000E+2	1.791576E-1	0.000000E+0	7.137453E-1
1.790000E+2	1.817113E-1	0.000000E+0	7.164020E-1
1.800000E+2	1.842773E-1	0.000000E+0	7.190474E-1
1.810000E+2	1.868558E-1	0.000000E+0	7.216814E-1
1.820000E+2	1.894465E-1	0.000000E+0	7.243040E-1
1.830000E+2	1.920492E-1	0.000000E+0	7.269150E-1
1.840000E+2	1.946639E-1	0.000000E+0	7.295145E-1
1.850000E+2	1.972905E-1	0.000000E+0	7.321022E-1
1.860000E+2	1.999286E-1	0.000000E+0	7.346781E-1
1.870000E+2	2.025784E-1	0.000000E+0	7.372421E-1
1.880000E+2	2.052396E-1	0.000000E+0	7.397942E-1
1.890000E+2	2.079121E-1	0.000000E+0	7.423343E-1
1.900000E+2	2.105958E-1	0.000000E+0	7.448622E-1
1.910000E+2	2.132905E-1	0.000000E+0	7.473779E-1
1.920000E+2	2.159960E-1	0.000000E+0	7.498814E-1
1.930000E+2	2.187123E-1	0.000000E+0	7.523725E-1
1.940000E+2	2.214392E-1	0.000000E+0	7.548511E-1
1.950000E+2	2.241767E-1	0.000000E+0	7.573173E-1
1.960000E+2	2.269244E-1	0.000000E+0	7.597708E-1
1.970000E+2	2.296825E-1	0.000000E+0	7.622117E-1
1.980000E+2	2.324505E-1	0.000000E+0	7.646398E-1
1.990000E+2	2.352285E-1	0.000000E+0	7.670551E-1
2.000000E+2	2.380164E-1	0.000000E+0	7.694575E-1
2.010000E+2	2.408140E-1	0.000000E+0	7.718470E-1
2.020000E+2	2.436210E-1	0.000000E+0	7.742234E-1
2.030000E+2	2.464376E-1	0.000000E+0	7.765867E-1
2.040000E+2	2.492633E-1	0.000000E+0	7.789368E-1
2.050000E+2	2.520983E-1	0.000000E+0	7.812737E-1
2.060000E+2	2.549422E-1	0.000000E+0	7.835972E-1
2.070000E+2	2.577951E-1	0.000000E+0	7.859073E-1
2.080000E+2	2.606567E-1	0.000000E+0	7.882040E-1
2.090000E+2	2.635269E-1	0.000000E+0	7.904872E-1
2.100000E+2	2.664055E-1	0.000000E+0	7.927567E-1
2.110000E+2	2.692926E-1	0.000000E+0	7.950126E-1
2.120000E+2	2.721877E-1	0.000000E+0	7.972548E-1
2.130000E+2	2.750910E-1	0.000000E+0	7.994832E-1
2.140000E+2	2.780023E-1	0.000000E+0	8.016977E-1
2.150000E+2	2.809213E-1	0.000000E+0	8.038983E-1
2.160000E+2	2.838480E-1	0.000000E+0	8.060849E-1
2.170000E+2	2.867823E-1	0.000000E+0	8.082575E-1
2.180000E+2	2.897239E-1	0.000000E+0	8.104159E-1
2.190000E+2	2.926729E-1	0.000000E+0	8.125602E-1
2.200000E+2	2.956290E-1	0.000000E+0	8.146903E-1
2.210000E+2	2.985920E-1	0.000000E+0	8.168061E-1
2.220000E+2	3.015620E-1	0.000000E+0	8.189075E-1
2.230000E+2	3.045387E-1	0.000000E+0	8.209945E-1
2.240000E+2	3.075219E-1	0.000000E+0	8.230671E-1
2.250000E+2	3.105117E-1	0.000000E+0	8.251251E-1
2.260000E+2	3.135079E-1	0.000000E+0	8.271686E-1
2.270000E+2	3.165101E-1	0.000000E+0	8.291975E-1
2.280000E+2	3.195185E-1	0.000000E+0	8.312116E-1
2.290000E+2	3.225328E-1	0.000000E+0	8.332111E-1
2.300000E+2	3.255529E-1	0.000000E+0	8.351957E-1
2.310000E+2	3.285787E-1	0.000000E+0	8.371655E-1
2.320000E+2	3.316101E-1	0.000000E+0	8.391204E-1
2.330000E+2	3.346469E-1	0.000000E+0	8.410604E-1
2.340000E+2	3.376888E-1	0.000000E+0	8.429853E-1
2.350000E+2	3.407360E-1	0.000000E+0	8.448953E-1
2.360000E+2	3.437882E-1	0.000000E+0	8.467901E-1
2.370000E+2	3.468453E-1	0.000000E+0	8.486698E-1
2.380000E+2	3.499071E-1	0.000000E+0	8.505343E-1
2.390000E+2	3.529735E-1	0.000000E+0	8.523836E-1
2.400000E+2	3.560443E-1	0.000000E+0	8.542176E-1
2.410000E+2	3.591196E-1	0.000000E+0	8.560363E-1
2.420000E+2	3.621991E-1	0.000000E+0	8.578396E-1
2.430000E+2	3.652827E-1	0.000000E+0	8.596275E-1
2.440000E+2	3.683702E-1	0.000000E+0	8.614000E-1
2.450000E+2	3.714615E-1	0.000000E+0	8.631569E-1
2.460000E+2	3.745566E-1	0.000000E+0	8.648983E-1
2.470000E+2	3.776552E-1	0.000000E+0	8.666241E-1
2.480000E+2	3.807572E-1	0.000000E+0	8.683343E-1
2.490000E+2	3.838626E-1	0.000000E+0	8.700289E-1
2.500000E+2	3.869711E-1	0.000000E+0	8.717077E-1
2.510000E+2	3.900827E-1	0.000000E+0	8.733708E-1
2.520000E+2	3.931972E-1	0.000000E+0	8.750182E-1
2.530000E+2	3.963145E-1	0.000000E+0	8.766497E-1
2.540000E+2	3.994345E-1	0.000000E+0	8.782654E-1
2.550000E+2	4.025570E-1	0.000000E+0	8.798652E-1
2.560000E+2	4.056819E-1	0.000000E+0	8.814491E-1
2.570000E+2	4.088090E-1	0.000000E+0	8.830170E-1
2.580000E+2	4.119383E-1	0.000000E+0	8.845689E-1
2.590000E+2	4.150696E-1	0.000000E+0	8.861048E-1
2.600000E+2	4.182029E-1	0.000000E+0	8.876247E-1
2.610000E+2	4.213378E-1	0.000000E+0	8.891285E-1
2.620000E+2	4.244744E-1	0.000000E+0	8.906162E-1
2.630000E+2	4.276126E-1	0.000000E+0	8.920877E-1
2.640000E+2	4.307520E-1	0.000000E+0	8.935431E-1
2.650000E+2	4.338928E-1	0.000000E+0	8.949823E-1
2.660000E+2	4.370347E-1	0.000000E+0	8.964052E-1
2.670000E+2	4.401775E-1	0.000000E+0	8.978119E-1
2.680000E+2	4.433212E-1	0.000000E+0	8.992023E-1
2.690000E+2	4.464657E-1	0.000000E+0	9.005764E-1
2.700000E+2	4.496109E-1	0.000000E+0	9.019342E-1
2.710000E+2	4.527565E-1	0.000000E+0	9.032756E-1
2.720000E+2	4.559025E-1	0.000000E+0	9.046006E-1
2.730000E+2	4.590487E-1	0.000000E+0	9.059092E-1
2.740000E+2	4.621951E-1	0.000000E+0	9.072014E-1
2.750000E+2	4.653415E-1	0.000000E+0	9.084772E-1
2.760000E+2	4.684877E-1	0.000000E+0	9.097365E-1
2.770000E+2	4.716337E-1	0.000000E+0	9.109793E-1
2.780000E+2	4.747793E-1	0.000000E+0	9.122056E-1
2.790000E+2	4.779245E-1	0.000000E+0	9.134153E-1
2.800000E+2	4.810691E-1	0.000000E+0	9.146085E-1
2.810000E+2	4.842128E-1	0.000000E+0	9.157852E-1
2.820000E+2	4.873558E-1	0.000000E+0	9.169452E-1
2.830000E+2	4.904977E-1	0.000000E+0	9.180887E-1
2.840000E+2	4.936386E-1	0.000000E+0	9.192155E-1
2.850000E+2	4.967782E-1	0.000000E+0	9.203258E-1
2.860000E+2	4.999164E-1	0.000000E+0	9.214193E-1
2.870000E+2	5.030533E-1	0.000000E+0	9.224962E-1
2.880000E+2	5.061885E-1	0.000000E+0	9.235565E-1
2.890000E+2	5.093220E-1	0.000000E+0	9.246001E-1
2.900000E+2	5.124537E-1	0.000000E+0	9.256269E-1
2.910000E+2	5.155835E-1	0.000000E+0	9.266371E-1
2.920000E+2	5.187112E-1	0.000000E+0	9.276305E-1
2.930000E+2	5.218367E-1	0.000000E+0	9.286072E-1
2.940000E+2	5.249599E-1	0.000000E+0	9.295672E-1
2.950000E+2	5.280808E-1	0.000000E+0	9.305104E-1
2.960000E+2	5.311990E-1	0.000000E+0	9.314369E-1
2.970000E+2	5.343147E-1	0.000000E+0	9.323466E-1
2.980000E+2	5.374275E-1	0.000000E+0	9.332395E-1
2.990000E+2	5.405375E-1	0.000000E+0	9.341157E-1
3.000000E+2	5.436445E-1	0.000000E+0	9.349750E-1
3.010000E+2	5.467483E-1	0.000000E+0	9.358176E-1
3.020000E+2	5.498490E-1	0.000000E+0	9.366434E-1
3.030000E+2	5.529462E-1	0.000000E+0	9.374524E-1
3.040000E+2	5.560401E-1	0.000000E+0	9.382447E-1
3.050000E+2	5.591303E-1	0.000000E+0	9.390201E-1
3.060000E+2	5.622169E-1	0.000000E+0	9.397787E-1
3.070000E+2	5.652997E-1	0.000000E+0	9.405205E-1
3.080000E+2	5.683785E-1	0.000000E+0	9.412455E-1
3.090000E+2	5.714534E-1	0.000000E+0	9.419537E-1
3.100000E+2	5.745240E-1	0.000000E+0	9.426450E-1
3.110000E+2	5.775905E-1	0.000000E+0	9.433196E-1
3.120000E+2	5.806526E-1	0.000000E+0	9.439774E-1
3.130000E+2	5.837102E-1	0.000000E+0	9.446184E-1
3.140000E+2	5.867633E-1	0.000000E+0	9.452426E-1
3.150000E+2	5.898116E-1	0.000000E+0	9.458500E-1
3.160000E+2	5.928551E-1	0.000000E+0	9.464406E-1
3.170000E+2	5.958937E-1	0.000000E+0	9.470144E-1
3.180000E+2	5.989274E-1	0.000000E+0	9.475715E-1
3.190000E+2	6.019559E-1	0.000000E+0	9.481118E-1
3.200000E+2	6.049791E-1	0.000000E+0	9.486353E-1
3.210000E+2	6.079970E-1	0.000000E+0	9.491420E-1
3.220000E+2	6.110095E-1	0.000000E+0	9.496320E-1
3.230000E+2	6.140163E-1	0.000000E+0	9.501053E-1
3.240000E+2	6.170176E-1	0.000000E+0	9.505618E-1
3.250000E+2	6.200131E-1	0.000000E+0	9.510016E-1
3.260000E+2	6.230026E-1	0.000000E+0	9.514247E-1
3.270000E+2	6.259862E-1	0.000000E+0	9.518311E-1
3.280000E+2	6.289638E-1	0.000000E+0	9.522208E-1
3.290000E+2	6.319351E-1	0.000000E+0	9.525938E-1
3.300000E+2	6.349001E-1	0.000000E+0	9.529502E-1
3.310000E+2	6.378588E-1	0.000000E+0	9.532899E-1
3.320000E+2	6.408109E-1	0.000000E+0	9.536129E-1
3.330000E+2	6.437564E-1	0.000000E+0	9.539193E-1
3.340000E+2	6.466953E-1	0.000000E+0	9.542091E-1
3.350000E+2	6.496273E-1	0.000000E+0	9.544824E-1
3.360000E+2	6.525524E-1	0.000000E+0	9.547390E-1
3.370000E+2	6.554706E-1	0.000000E+0	9.549790E-1
3.380000E+2	6.583816E-1	0.000000E+0	9.552026E-1
3.390000E+2	6.612854E-1	0.000000E+0	9.554095E-1
3.400000E+2	6.641818E-1	0.000000E+0	9.556000E-1
3.410000E+2	6.670710E-1	0.000000E+0	9.557740E-1
3.420000E+2	6.699525E-1	0.000000E+0	9.559315E-1
3.430000E+2	6.728266E-1	0.000000E+0	9.560725E-1
3.440000E+2	6.756929E-1	0.000000E+0	9.561971E-1
3.450000E+2	6.785514E-1	0.000000E+0	9.563053E-1
3.460000E+2	6.814020E-1	0.000000E+0	9.563971E-1
3.470000E+2	6.842446E-1	0.000000E+0	9.564725E-1
3.480000E+2	6.870792E-1	0.000000E+0	9.565316E-1
3.490000E+2	6.899056E-1	0.000000E+0	9.565743E-1
3.500000E+2	6.927237E-1	0.000000E+0	9.566007E-1
3.510000E+2	6.955334E-1	0.000000E+0	9.566109E-1
3.520000E+2	6.983347E-1	0.000000E+0	9.566048E-1
3.530000E+2	7.011274E-1	0.000000E+0	9.565824E-1
3.540000E+2	7.039115E-1	0.000000E+0	9.565439E-1
3.550000E+2	7.066869E-1	0.000000E+0	9.564891E-1
3.560000E+2	7.094534E-1	0.000000E+0	9.564182E-1
3.570000E+2	7.122111E-1	0.000000E+0	9.563312E-1
3.580000E+2	7.149597E-1	0.000000E+0	9.562281E-1
3.590000E+2	7.176992E-1	0.000000E+0	9.561089E-1
3.600000E+2	7.204295E-1	0.000000E+0	9.559737E-1
3.610000E+2	7.231506E-1	0.000000E+0	9.558224E-1
3.620000E+2	7.258623E-1	0.000000E+0	9.556552E-1
3.630000E+2	7.285646E-1	0.000000E+0	9.554720E-1
3.640000E+2	7.312573E-1	0.000000E+0	9.552728E-1
3.650000E+2	7.339403E-1	0.000000E+0	9.550578E-1
3.660000E+2	7.366137E-1	0.000000E+0	9.548269E-1
3.670000E+2	7.392773E-1	0.000000E+0	9.545802E-1
3.680000E+2	7.419310E-1	0.000000E+0	9.543177E-1
3.690000E+2	7.445748E-1	0.000000E+0	9.540394E-1
3.700000E+2	7.472084E-1	0.000000E+0	9.537453E-1
3.710000E+2	7.498320E-1	0.000000E+0	9.534356E-1
3.720000E+2	7.524454E-1	0.000000E+0	9.531102E-1
3.730000E+2	7.550484E-1	0.000000E+0	9.527692E-1
3.740000E+2	7.576411E-1	0.000000E+0	9.524126E-1
3.750000E+2	7.602232E-1	0.000000E+0	9.520404E-1
3.760000E+2	7.627949E-1	0.000000E+0	9.516526E-1
3.770000E+2	7.653560E-1	0.000000E+0	9.512494E-1
3.780000E+2	7.679063E-1	0.000000E+0	9.508308E-1
3.790000E+2	7.704458E-1	0.000000E+0	9.503967E-1
3.800000E+2	7.729745E-1	0.000000E+0	9.499472E-1
3.810000E+2	7.754923E-1	0.000000E+0	9.494824E-1
3.820000E+2	7.779991E-1	0.000000E+0	9.490023E-1
3.830000E+2	7.804948E-1	0.000000E+0	9.485070E-1
3.840000E+2	7.829792E-1	0.000000E+0	9.479964E-1
3.850000E+2	7.854525E-1	0.000000E+0	9.474706E-1
3.860000E+2	7.879140E-1	0.000000E+0	9.469297E-1
3.870000E+2	7.903648E-1	0.000000E+0	9.463737E-1
3.880000E+2	7.928038E-1	0.000000E+0	9.458026E-1
3.890000E+2	7.952318E-1	0.000000E+0	9.452165E-1
3.900000E+2	7.976472E-1	0.000000E+0	9.446155E-1
3.910000E+2	8.000516E-1	0.000000E+0	9.439995E-1
3.920000E+2	8.024442E-1	0.000000E+0	9.433686E-1
3.930000E+2	8.048250E-1	0.000000E+0	9.427228E-1
3.940000E+2	8.071932E-1	0.000000E+0	9.420623E-1
3.950000E+2	8.095504E-1	0.000000E+0	9.413869E-1
3.960000E+2	8.118951E-1	0.000000E+0	9.406969E-1
3.970000E+2	8.142271E-1	0.000000E+0	9.399922E-1
3.980000E+2	8.165474E-1	0.000000E+0	9.392729E-1
3.990000E+2	8.188559E-1	0.000000E+0	9.385390E-1
4.000000E+2	8.211518E-1	0.000000E+0	9.377905E-1
4.010000E+2	8.234351E-1	0.000000E+0	9.370276E-1
4.020000E+2	8.257058E-1	0.000000E+0	9.362502E-1
